Wavenumber,Intensity
0.000000000000000000e+00,2.522450980392156907e+02
1.000000000000000000e+00,2.106740196078431211e+02
2.000000000000000000e+00,1.288799019607843093e+02
3.000000000000000000e+00,7.149264705882352189e+01
4.000000000000000000e+00,3.811764705882352899e+01
5.000000000000000000e+00,2.250980392156862919e+01
6.000000000000000000e+00,2.447058823529411598e+01
7.000000000000000000e+00,2.639460784313725483e+01
8.000000000000000000e+00,2.778431372549019329e+01
9.000000000000000000e+00,2.964460784313725483e+01
1.000000000000000000e+01,3.188480392156862919e+01
1.100000000000000000e+01,3.262500000000000000e+01
1.200000000000000000e+01,3.174264705882353255e+01
1.300000000000000000e+01,3.549509803921568363e+01
1.400000000000000000e+01,4.333823529411764497e+01
1.500000000000000000e+01,5.580882352941176805e+01
1.600000000000000000e+01,7.213725490196078738e+01
1.700000000000000000e+01,9.396568627450982092e+01
1.800000000000000000e+01,1.230882352941176379e+02
1.900000000000000000e+01,1.530073529411764639e+02
2.000000000000000000e+01,1.831838235294117965e+02
2.100000000000000000e+01,2.040661764705882035e+02
2.200000000000000000e+01,2.152965686274509665e+02
2.300000000000000000e+01,2.229534313725490335e+02
2.400000000000000000e+01,2.264803921568627345e+02
2.500000000000000000e+01,2.247058823529411882e+02
2.600000000000000000e+01,2.177377450980391984e+02
2.700000000000000000e+01,2.049460784313725128e+02
2.800000000000000000e+01,1.875416666666666572e+02
2.900000000000000000e+01,1.717573529411764639e+02
3.000000000000000000e+01,1.554828431372549176e+02
3.100000000000000000e+01,1.337083333333333428e+02
3.200000000000000000e+01,1.062696078431372513e+02
3.300000000000000000e+01,8.449019607843138147e+01
3.400000000000000000e+01,6.850245098039216884e+01
3.500000000000000000e+01,5.652941176470588402e+01
3.600000000000000000e+01,4.617892156862745168e+01
3.700000000000000000e+01,4.005637254901960631e+01
3.800000000000000000e+01,3.851470588235294201e+01
3.900000000000000000e+01,3.673529411764706509e+01
4.000000000000000000e+01,3.377205882352941302e+01
4.100000000000000000e+01,3.157352941176470651e+01
4.200000000000000000e+01,3.005637254901961342e+01
4.300000000000000000e+01,2.963235294117646745e+01
4.400000000000000000e+01,3.027205882352940947e+01
4.500000000000000000e+01,2.991666666666666785e+01
4.600000000000000000e+01,2.943627450980392268e+01
4.700000000000000000e+01,2.836519607843137081e+01
4.800000000000000000e+01,2.641176470588235148e+01
4.900000000000000000e+01,2.584068627450980671e+01
5.000000000000000000e+01,2.584558823529411953e+01
5.100000000000000000e+01,2.587009803921568718e+01
5.200000000000000000e+01,2.579411764705882248e+01
5.300000000000000000e+01,2.528676470588235148e+01
5.400000000000000000e+01,2.521813725490196134e+01
5.500000000000000000e+01,2.508088235294117752e+01
5.600000000000000000e+01,2.526470588235294201e+01
5.700000000000000000e+01,2.462745098039215819e+01
5.800000000000000000e+01,2.457107843137255188e+01
5.900000000000000000e+01,2.432843137254901933e+01
6.000000000000000000e+01,2.431127450980392268e+01
6.100000000000000000e+01,2.430637254901960986e+01
6.200000000000000000e+01,2.429411764705882604e+01
6.300000000000000000e+01,2.431127450980392268e+01
6.400000000000000000e+01,2.454901960784313530e+01
6.500000000000000000e+01,2.475245098039215463e+01
6.600000000000000000e+01,2.474264705882352544e+01
6.700000000000000000e+01,2.474264705882352544e+01
6.800000000000000000e+01,2.475000000000000000e+01
6.900000000000000000e+01,2.476960784313725483e+01
7.000000000000000000e+01,2.475980392156862919e+01
7.100000000000000000e+01,2.473284313725489980e+01
7.200000000000000000e+01,2.497549019607842880e+01
7.300000000000000000e+01,2.519362745098039014e+01
7.400000000000000000e+01,2.518382352941176450e+01
7.500000000000000000e+01,2.485049019607842880e+01
7.600000000000000000e+01,2.486764705882352544e+01
7.700000000000000000e+01,2.516666666666666785e+01
7.800000000000000000e+01,2.515441176470588402e+01
7.900000000000000000e+01,2.485539215686274517e+01
8.000000000000000000e+01,2.487745098039215463e+01
8.100000000000000000e+01,2.515931372549019684e+01
8.200000000000000000e+01,2.513725490196078383e+01
8.300000000000000000e+01,2.515196078431372584e+01
8.400000000000000000e+01,2.516666666666666785e+01
8.500000000000000000e+01,2.516666666666666785e+01
8.600000000000000000e+01,2.515196078431372584e+01
8.700000000000000000e+01,2.515196078431372584e+01
8.800000000000000000e+01,2.516666666666666785e+01
8.900000000000000000e+01,2.516666666666666785e+01
9.000000000000000000e+01,2.515196078431372584e+01
9.100000000000000000e+01,2.515196078431372584e+01
9.200000000000000000e+01,2.516666666666666785e+01
9.300000000000000000e+01,2.516666666666666785e+01
9.400000000000000000e+01,2.515196078431372584e+01
9.500000000000000000e+01,2.459803921568627416e+01
9.600000000000000000e+01,2.456617647058823195e+01
9.700000000000000000e+01,2.464705882352940947e+01
9.800000000000000000e+01,2.540686274509803866e+01
9.900000000000000000e+01,2.596078431372548678e+01
1.000000000000000000e+02,2.680637254901960986e+01
1.010000000000000000e+02,2.781127450980392268e+01
1.020000000000000000e+02,2.774509803921568718e+01
1.030000000000000000e+02,2.670588235294117752e+01
1.040000000000000000e+02,2.587254901960784181e+01
1.050000000000000000e+02,2.535049019607843590e+01
1.060000000000000000e+02,2.522794117647059053e+01
1.070000000000000000e+02,2.518627450980392268e+01
1.080000000000000000e+02,2.527941176470588402e+01
1.090000000000000000e+02,2.514705882352940947e+01
1.100000000000000000e+02,2.526225490196078383e+01
1.110000000000000000e+02,2.557107843137255188e+01
1.120000000000000000e+02,2.587500000000000000e+01
1.130000000000000000e+02,2.648529411764706154e+01
1.140000000000000000e+02,2.648774509803921617e+01
1.150000000000000000e+02,2.678431372549019329e+01
1.160000000000000000e+02,2.708823529411764852e+01
1.170000000000000000e+02,2.767156862745098067e+01
1.180000000000000000e+02,2.786519607843137081e+01
1.190000000000000000e+02,2.864705882352941657e+01
1.200000000000000000e+02,2.918627450980392268e+01
1.210000000000000000e+02,2.962500000000000000e+01
1.220000000000000000e+02,3.030637254901960986e+01
1.230000000000000000e+02,3.086029411764706154e+01
1.240000000000000000e+02,3.100000000000000000e+01
1.250000000000000000e+02,3.110539215686274517e+01
1.260000000000000000e+02,3.112990196078431282e+01
1.270000000000000000e+02,3.197058823529411953e+01
1.280000000000000000e+02,3.290686274509803866e+01
1.290000000000000000e+02,3.371078431372549034e+01
1.300000000000000000e+02,3.334313725490196134e+01
1.310000000000000000e+02,3.359068627450980671e+01
1.320000000000000000e+02,3.423774509803921262e+01
1.330000000000000000e+02,3.626960784313725128e+01
1.340000000000000000e+02,3.846813725490196134e+01
1.350000000000000000e+02,3.950980392156862564e+01
1.360000000000000000e+02,3.937745098039216174e+01
1.370000000000000000e+02,3.902941176470588402e+01
1.380000000000000000e+02,3.754166666666666430e+01
1.390000000000000000e+02,3.675980392156862564e+01
1.400000000000000000e+02,3.611274509803921973e+01
1.410000000000000000e+02,3.599264705882352899e+01
1.420000000000000000e+02,3.634313725490196134e+01
1.430000000000000000e+02,3.603186274509803866e+01
1.440000000000000000e+02,3.495343137254901933e+01
1.450000000000000000e+02,3.415686274509803866e+01
1.460000000000000000e+02,3.297303921568627771e+01
1.470000000000000000e+02,3.241911764705881893e+01
1.480000000000000000e+02,3.238725490196078027e+01
1.490000000000000000e+02,3.237990196078430927e+01
1.500000000000000000e+02,3.268872549019608442e+01
1.510000000000000000e+02,3.299754901960783826e+01
1.520000000000000000e+02,3.381862745098039369e+01
1.530000000000000000e+02,3.421568627450979960e+01
1.540000000000000000e+02,3.482598039215686470e+01
1.550000000000000000e+02,3.527450980392156765e+01
1.560000000000000000e+02,3.529411764705881893e+01
1.570000000000000000e+02,3.526225490196078027e+01
1.580000000000000000e+02,3.499264705882352899e+01
1.590000000000000000e+02,3.490931372549019329e+01
1.600000000000000000e+02,3.408333333333333570e+01
1.610000000000000000e+02,3.417156862745097357e+01
1.620000000000000000e+02,3.625980392156862564e+01
1.630000000000000000e+02,3.710049019607842524e+01
1.640000000000000000e+02,3.771323529411764497e+01
1.650000000000000000e+02,3.818627450980392268e+01
1.660000000000000000e+02,3.873529411764705799e+01
1.670000000000000000e+02,4.302941176470587692e+01
1.680000000000000000e+02,5.092401960784314241e+01
1.690000000000000000e+02,6.088235294117647101e+01
1.700000000000000000e+02,7.456862745098040079e+01
1.710000000000000000e+02,8.754656862745098067e+01
1.720000000000000000e+02,1.017156862745097925e+02
1.730000000000000000e+02,1.126544117647058698e+02
1.740000000000000000e+02,1.201397058823529420e+02
1.750000000000000000e+02,1.204852941176470580e+02
1.760000000000000000e+02,1.125857843137254832e+02
1.770000000000000000e+02,1.023186274509803866e+02
1.780000000000000000e+02,8.864460784313725128e+01
1.790000000000000000e+02,7.539950980392156055e+01
1.800000000000000000e+02,6.249509803921569073e+01
1.810000000000000000e+02,5.319362745098038658e+01
1.820000000000000000e+02,4.852941176470588402e+01
1.830000000000000000e+02,4.510294117647058698e+01
1.840000000000000000e+02,4.432598039215687180e+01
1.850000000000000000e+02,4.291666666666666430e+01
1.860000000000000000e+02,4.087500000000000000e+01
1.870000000000000000e+02,4.019607843137254832e+01
1.880000000000000000e+02,4.090441176470588402e+01
1.890000000000000000e+02,4.317401960784314241e+01
1.900000000000000000e+02,4.623529411764706509e+01
1.910000000000000000e+02,4.896323529411764497e+01
1.920000000000000000e+02,5.191666666666666430e+01
1.930000000000000000e+02,5.662745098039215463e+01
1.940000000000000000e+02,6.218382352941176094e+01
1.950000000000000000e+02,6.915196078431371518e+01
1.960000000000000000e+02,7.708088235294117396e+01
1.970000000000000000e+02,8.350980392156861853e+01
1.980000000000000000e+02,8.814950980392156055e+01
1.990000000000000000e+02,9.024019607843138147e+01
2.000000000000000000e+02,8.887009803921567652e+01
2.010000000000000000e+02,8.545098039215686470e+01
2.020000000000000000e+02,7.965931372549019329e+01
2.030000000000000000e+02,7.221568627450980671e+01
2.040000000000000000e+02,6.365686274509804576e+01
2.050000000000000000e+02,5.652205882352941302e+01
2.060000000000000000e+02,5.061764705882352899e+01
2.070000000000000000e+02,4.553186274509803866e+01
2.080000000000000000e+02,4.065931372549020040e+01
2.090000000000000000e+02,3.739950980392156765e+01
2.100000000000000000e+02,3.582843137254901222e+01
2.110000000000000000e+02,3.487990196078431637e+01
2.120000000000000000e+02,3.433578431372549034e+01
2.130000000000000000e+02,3.439215686274510375e+01
2.140000000000000000e+02,3.535294117647058698e+01
2.150000000000000000e+02,3.571323529411764497e+01
2.160000000000000000e+02,3.530392156862745168e+01
2.170000000000000000e+02,3.474019607843137436e+01
2.180000000000000000e+02,3.367401960784313530e+01
2.190000000000000000e+02,3.329656862745098067e+01
2.200000000000000000e+02,3.330637254901960631e+01
2.210000000000000000e+02,3.388725490196078027e+01
2.220000000000000000e+02,3.551470588235294201e+01
2.230000000000000000e+02,3.643137254901960631e+01
2.240000000000000000e+02,3.697058823529412308e+01
2.250000000000000000e+02,3.908088235294117396e+01
2.260000000000000000e+02,4.216176470588234793e+01
2.270000000000000000e+02,4.625980392156862564e+01
2.280000000000000000e+02,5.122794117647058698e+01
2.290000000000000000e+02,5.649754901960784537e+01
2.300000000000000000e+02,6.202205882352941302e+01
2.310000000000000000e+02,6.734068627450979250e+01
2.320000000000000000e+02,7.128186274509802445e+01
2.330000000000000000e+02,7.347303921568627061e+01
2.340000000000000000e+02,7.426715686274509665e+01
2.350000000000000000e+02,7.277450980392156055e+01
2.360000000000000000e+02,7.028676470588236214e+01
2.370000000000000000e+02,6.766666666666667140e+01
2.380000000000000000e+02,6.425735294117647811e+01
2.390000000000000000e+02,6.029901960784314241e+01
2.400000000000000000e+02,5.506862745098039369e+01
2.410000000000000000e+02,5.123529411764706509e+01
2.420000000000000000e+02,4.845098039215685759e+01
2.430000000000000000e+02,4.508088235294118107e+01
2.440000000000000000e+02,4.107598039215685759e+01
2.450000000000000000e+02,3.756372549019607732e+01
2.460000000000000000e+02,3.484803921568627061e+01
2.470000000000000000e+02,3.211274509803921973e+01
2.480000000000000000e+02,3.041421568627451322e+01
2.490000000000000000e+02,2.948039215686274517e+01
2.500000000000000000e+02,2.845098039215686114e+01
2.510000000000000000e+02,2.785049019607843590e+01
2.520000000000000000e+02,2.741421568627451322e+01
2.530000000000000000e+02,2.696813725490196134e+01
2.540000000000000000e+02,2.666911764705882248e+01
2.550000000000000000e+02,2.662254901960784181e+01
2.560000000000000000e+02,2.742647058823529349e+01
2.570000000000000000e+02,2.789705882352940947e+01
2.580000000000000000e+02,2.810539215686274517e+01
2.590000000000000000e+02,2.824509803921568718e+01
2.600000000000000000e+02,2.830392156862744812e+01
2.610000000000000000e+02,2.821078431372548678e+01
2.620000000000000000e+02,2.895343137254901933e+01
2.630000000000000000e+02,2.937254901960784537e+01
2.640000000000000000e+02,3.066421568627450611e+01
2.650000000000000000e+02,3.246323529411764497e+01
2.660000000000000000e+02,3.407352941176470296e+01
2.670000000000000000e+02,3.568872549019607732e+01
2.680000000000000000e+02,3.742401960784314241e+01
2.690000000000000000e+02,3.898529411764705799e+01
2.700000000000000000e+02,3.980637254901960631e+01
2.710000000000000000e+02,4.069607843137254832e+01
2.720000000000000000e+02,4.164460784313725839e+01
2.730000000000000000e+02,4.339705882352941302e+01
2.740000000000000000e+02,4.477941176470588402e+01
2.750000000000000000e+02,4.652941176470588402e+01
2.760000000000000000e+02,4.846078431372549034e+01
2.770000000000000000e+02,4.912745098039215463e+01
2.780000000000000000e+02,4.861519607843137436e+01
2.790000000000000000e+02,4.749019607843137436e+01
2.800000000000000000e+02,4.557843137254902643e+01
2.810000000000000000e+02,4.403921568627450966e+01
2.820000000000000000e+02,4.329656862745098778e+01
2.830000000000000000e+02,4.289460784313725839e+01
2.840000000000000000e+02,4.288970588235294912e+01
2.850000000000000000e+02,4.321813725490196134e+01
2.860000000000000000e+02,4.364460784313725839e+01
2.870000000000000000e+02,4.488480392156862564e+01
2.880000000000000000e+02,4.845343137254902643e+01
2.890000000000000000e+02,5.160539215686274161e+01
2.900000000000000000e+02,5.487500000000000000e+01
2.910000000000000000e+02,5.747303921568627771e+01
2.920000000000000000e+02,5.913725490196078027e+01
2.930000000000000000e+02,6.202696078431372229e+01
2.940000000000000000e+02,6.511274509803921262e+01
2.950000000000000000e+02,7.151470588235294201e+01
2.960000000000000000e+02,8.041911764705882604e+01
2.970000000000000000e+02,9.004901960784313530e+01
2.980000000000000000e+02,1.007034313725490193e+02
2.990000000000000000e+02,1.077426470588235361e+02
3.000000000000000000e+02,1.110245098039215605e+02
3.010000000000000000e+02,1.111127450980392268e+02
3.020000000000000000e+02,1.081029411764705941e+02
3.030000000000000000e+02,9.988725490196077317e+01
3.040000000000000000e+02,8.754166666666667140e+01
3.050000000000000000e+02,7.577696078431371518e+01
3.060000000000000000e+02,6.529166666666667140e+01
3.070000000000000000e+02,5.487009803921569073e+01
3.080000000000000000e+02,4.569852941176470296e+01
3.090000000000000000e+02,3.938235294117647101e+01
3.100000000000000000e+02,3.588970588235294201e+01
3.110000000000000000e+02,3.309068627450980671e+01
3.120000000000000000e+02,3.075980392156862919e+01
3.130000000000000000e+02,2.866666666666666785e+01
3.140000000000000000e+02,2.629656862745098067e+01
3.150000000000000000e+02,2.503431372549019329e+01
3.160000000000000000e+02,2.451960784313725483e+01
3.170000000000000000e+02,2.449019607843137081e+01
3.180000000000000000e+02,2.550980392156862919e+01
3.190000000000000000e+02,2.563970588235294201e+01
3.200000000000000000e+02,2.485294117647059053e+01
3.210000000000000000e+02,2.396323529411764852e+01
3.220000000000000000e+02,2.346568627450980316e+01
3.230000000000000000e+02,2.299264705882353255e+01
3.240000000000000000e+02,2.268627450980392268e+01
3.250000000000000000e+02,2.197303921568627416e+01
3.260000000000000000e+02,2.181372549019607732e+01
3.270000000000000000e+02,2.169607843137255188e+01
3.280000000000000000e+02,2.177205882352940947e+01
3.290000000000000000e+02,2.187254901960784537e+01
3.300000000000000000e+02,2.188480392156862919e+01
3.310000000000000000e+02,2.150490196078431282e+01
3.320000000000000000e+02,2.173774509803921617e+01
3.330000000000000000e+02,2.225735294117647456e+01
3.340000000000000000e+02,2.233578431372548678e+01
3.350000000000000000e+02,2.278676470588235148e+01
3.360000000000000000e+02,2.285539215686274517e+01
3.370000000000000000e+02,2.333578431372549389e+01
3.380000000000000000e+02,2.333578431372548678e+01
3.390000000000000000e+02,2.336764705882353255e+01
3.400000000000000000e+02,2.337254901960784537e+01
3.410000000000000000e+02,2.337254901960784537e+01
3.420000000000000000e+02,2.336764705882353255e+01
3.430000000000000000e+02,2.336764705882353255e+01
3.440000000000000000e+02,2.337254901960784537e+01
3.450000000000000000e+02,2.337254901960784537e+01
3.460000000000000000e+02,2.336764705882353255e+01
3.470000000000000000e+02,2.336764705882353255e+01
3.480000000000000000e+02,2.337254901960784537e+01
3.490000000000000000e+02,2.337254901960784537e+01
3.500000000000000000e+02,2.336764705882353255e+01
3.510000000000000000e+02,2.341666666666666785e+01
3.520000000000000000e+02,2.355392156862744812e+01
3.530000000000000000e+02,2.467156862745098067e+01
3.540000000000000000e+02,2.464460784313725483e+01
3.550000000000000000e+02,2.463480392156862919e+01
3.560000000000000000e+02,2.463725490196078383e+01
3.570000000000000000e+02,2.354166666666666785e+01
3.580000000000000000e+02,2.342401960784313530e+01
3.590000000000000000e+02,2.333578431372548678e+01
3.600000000000000000e+02,2.330637254901960986e+01
3.610000000000000000e+02,2.261519607843137081e+01
3.620000000000000000e+02,2.254656862745098067e+01
3.630000000000000000e+02,2.248039215686274517e+01
3.640000000000000000e+02,2.245098039215686470e+01
3.650000000000000000e+02,2.240686274509803866e+01
3.660000000000000000e+02,2.237745098039215819e+01
3.670000000000000000e+02,2.238725490196078383e+01
3.680000000000000000e+02,2.244852941176470651e+01
3.690000000000000000e+02,2.272303921568627416e+01
3.700000000000000000e+02,2.271813725490196134e+01
3.710000000000000000e+02,2.272058823529411598e+01
3.720000000000000000e+02,2.273039215686274517e+01
3.730000000000000000e+02,2.273039215686274517e+01
3.740000000000000000e+02,2.272058823529411598e+01
3.750000000000000000e+02,2.272058823529411598e+01
3.760000000000000000e+02,2.273039215686274517e+01
3.770000000000000000e+02,2.273039215686274517e+01
3.780000000000000000e+02,2.272058823529411598e+01
3.790000000000000000e+02,2.272058823529411598e+01
3.800000000000000000e+02,2.273039215686274517e+01
3.810000000000000000e+02,2.273039215686274517e+01
3.820000000000000000e+02,2.272058823529411598e+01
3.830000000000000000e+02,2.269607843137255188e+01
3.840000000000000000e+02,2.272303921568627061e+01
3.850000000000000000e+02,2.272303921568627416e+01
3.860000000000000000e+02,2.271323529411764852e+01
3.870000000000000000e+02,2.271323529411764852e+01
3.880000000000000000e+02,2.272303921568627416e+01
3.890000000000000000e+02,2.272303921568627416e+01
3.900000000000000000e+02,2.271323529411764852e+01
3.910000000000000000e+02,2.271323529411764852e+01
3.920000000000000000e+02,2.272303921568627416e+01
3.930000000000000000e+02,2.272303921568627416e+01
3.940000000000000000e+02,2.271323529411764852e+01
3.950000000000000000e+02,2.271323529411764852e+01
3.960000000000000000e+02,2.272303921568627416e+01
3.970000000000000000e+02,2.272303921568627416e+01
3.980000000000000000e+02,2.271323529411764852e+01
