Wavenumber,Intensity
2.000000000000000000e+02,7.424501424501424651e+01
2.010000000000000000e+02,6.285518607549857961e+01
2.020000000000000000e+02,5.146191239316239319e+01
2.030000000000000000e+02,3.997848112535612586e+01
2.040000000000000000e+02,2.851235754985755122e+01
2.050000000000000000e+02,1.726402243589743790e+01
2.060000000000000000e+02,7.373059116809118407e+00
2.070000000000000000e+02,8.416479700854701207e+00
2.080000000000000000e+02,9.469195156695157323e+00
2.090000000000000000e+02,1.057574341168091259e+01
2.100000000000000000e+02,1.173704594017093861e+01
2.110000000000000000e+02,1.314109241452991483e+01
2.120000000000000000e+02,1.443151709401709404e+01
2.130000000000000000e+02,1.532110933048432955e+01
2.140000000000000000e+02,1.614376780626780672e+01
2.150000000000000000e+02,1.677359330484330613e+01
2.160000000000000000e+02,1.747350427350427537e+01
2.170000000000000000e+02,1.834132834757834729e+01
2.180000000000000000e+02,1.914112357549857535e+01
2.190000000000000000e+02,1.980360131766381571e+01
2.200000000000000000e+02,2.016960470085470192e+01
2.210000000000000000e+02,2.002666043447293376e+01
2.220000000000000000e+02,1.975385505698005773e+01
2.230000000000000000e+02,1.929019319800569576e+01
2.240000000000000000e+02,1.882396723646723302e+01
2.250000000000000000e+02,1.835450053418803407e+01
2.260000000000000000e+02,1.795031160968660799e+01
2.270000000000000000e+02,1.761725872507122403e+01
2.280000000000000000e+02,1.792288105413105725e+01
2.290000000000000000e+02,1.882916221509971777e+01
2.300000000000000000e+02,1.967374465811965933e+01
2.310000000000000000e+02,2.046828258547008517e+01
2.320000000000000000e+02,2.125726495726495813e+01
2.330000000000000000e+02,2.204237001424501230e+01
2.340000000000000000e+02,2.305768340455840715e+01
2.350000000000000000e+02,2.421067040598290632e+01
2.360000000000000000e+02,2.535933048433048853e+01
2.370000000000000000e+02,2.650578703703703809e+01
2.380000000000000000e+02,2.767761752136751596e+01
2.390000000000000000e+02,2.886035434472934469e+01
2.400000000000000000e+02,3.028881766381766028e+01
2.410000000000000000e+02,3.180533297720798203e+01
2.420000000000000000e+02,3.476503739316239461e+01
2.430000000000000000e+02,3.814853543447292594e+01
2.440000000000000000e+02,4.203384971509972701e+01
2.450000000000000000e+02,4.603701477920228058e+01
2.460000000000000000e+02,5.088486467236469224e+01
2.470000000000000000e+02,5.588573717948718667e+01
2.480000000000000000e+02,5.999558404558406721e+01
2.490000000000000000e+02,6.398786502849003455e+01
2.500000000000000000e+02,7.117659366096866336e+01
2.510000000000000000e+02,7.864234775641030240e+01
2.520000000000000000e+02,8.827060185185187891e+01
2.530000000000000000e+02,9.799589120370376349e+01
2.540000000000000000e+02,1.061483440170940469e+02
2.550000000000000000e+02,1.142878160612535652e+02
2.560000000000000000e+02,1.223238960113960587e+02
2.570000000000000000e+02,1.305034989316239660e+02
2.580000000000000000e+02,1.406663283475783999e+02
2.590000000000000000e+02,1.506464743589743875e+02
2.600000000000000000e+02,1.590576923076923208e+02
2.610000000000000000e+02,1.674886707621083133e+02
2.620000000000000000e+02,1.760399305555555713e+02
2.630000000000000000e+02,1.842712918447293760e+02
2.640000000000000000e+02,1.910245014245014374e+02
2.650000000000000000e+02,1.970314058048433026e+02
2.660000000000000000e+02,2.003089654558404220e+02
2.670000000000000000e+02,2.035903579059828985e+02
2.680000000000000000e+02,2.068831552706552657e+02
2.690000000000000000e+02,2.104561030982906118e+02
2.700000000000000000e+02,2.147204861111111143e+02
2.710000000000000000e+02,2.180378338675213854e+02
2.720000000000000000e+02,2.193896367521367665e+02
2.730000000000000000e+02,2.207621883903133835e+02
2.740000000000000000e+02,2.221713141025640823e+02
2.750000000000000000e+02,2.236999421296296191e+02
2.760000000000000000e+02,2.254087428774928696e+02
2.770000000000000000e+02,2.266665242165242091e+02
2.780000000000000000e+02,2.273398860398860393e+02
2.790000000000000000e+02,2.270689147079771999e+02
2.800000000000000000e+02,2.257432336182336030e+02
2.810000000000000000e+02,2.242424189814814781e+02
2.820000000000000000e+02,2.225728009259259181e+02
2.830000000000000000e+02,2.210858262108261840e+02
2.840000000000000000e+02,2.197507122507122403e+02
2.850000000000000000e+02,2.173587740384615472e+02
2.860000000000000000e+02,2.142103721509971592e+02
2.870000000000000000e+02,2.094303418803418424e+02
2.880000000000000000e+02,2.036487179487179162e+02
2.890000000000000000e+02,1.987825765669515476e+02
2.900000000000000000e+02,1.943955662393162243e+02
2.910000000000000000e+02,1.901956819800569747e+02
2.920000000000000000e+02,1.860785968660968308e+02
2.930000000000000000e+02,1.809237580128204854e+02
2.940000000000000000e+02,1.753852118945868881e+02
2.950000000000000000e+02,1.707458823005698036e+02
2.960000000000000000e+02,1.663799145299144868e+02
2.970000000000000000e+02,1.620751780626780487e+02
2.980000000000000000e+02,1.577853988603988569e+02
2.990000000000000000e+02,1.520551193019942957e+02
3.000000000000000000e+02,1.460514601139601041e+02
3.010000000000000000e+02,1.389115162037035986e+02
3.020000000000000000e+02,1.316126513532762772e+02
3.030000000000000000e+02,1.243535835113959536e+02
3.040000000000000000e+02,1.170982549857549628e+02
3.050000000000000000e+02,1.082814725783475751e+02
3.060000000000000000e+02,9.938409900284889886e+01
3.070000000000000000e+02,9.312132300569794552e+01
3.080000000000000000e+02,8.691518874643871584e+01
3.090000000000000000e+02,8.165962873931621857e+01
3.100000000000000000e+02,7.632215990028490182e+01
3.110000000000000000e+02,6.973148593304836140e+01
3.120000000000000000e+02,6.327799145299140804e+01
3.130000000000000000e+02,5.808483351139597772e+01
3.140000000000000000e+02,5.317235576923075513e+01
3.150000000000000000e+02,5.005878294159543884e+01
3.160000000000000000e+02,4.695480769230765361e+01
3.170000000000000000e+02,4.389710648148145111e+01
3.180000000000000000e+02,4.096381766381765033e+01
3.190000000000000000e+02,3.850256410256409367e+01
3.200000000000000000e+02,3.604825498575497988e+01
3.210000000000000000e+02,3.361530003561250624e+01
3.220000000000000000e+02,3.156567841880340808e+01
3.230000000000000000e+02,3.049105680199429713e+01
3.240000000000000000e+02,2.952037037037037237e+01
3.250000000000000000e+02,2.877154558404558315e+01
3.260000000000000000e+02,2.802272079772078683e+01
3.270000000000000000e+02,2.727389601139601538e+01
3.280000000000000000e+02,2.647521367521366997e+01
3.290000000000000000e+02,2.559940794159542676e+01
3.300000000000000000e+02,2.481583867521367281e+01
3.310000000000000000e+02,2.415481214387463638e+01
3.320000000000000000e+02,2.340514601139601680e+01
3.330000000000000000e+02,2.255401086182335746e+01
3.340000000000000000e+02,2.182589031339030328e+01
3.350000000000000000e+02,2.121928418803418737e+01
3.360000000000000000e+02,2.090491452991453158e+01
3.370000000000000000e+02,2.083961004273504614e+01
3.380000000000000000e+02,2.093666310541311049e+01
3.390000000000000000e+02,2.115289351851852473e+01
3.400000000000000000e+02,2.133796296296296546e+01
3.410000000000000000e+02,2.150340099715100095e+01
3.420000000000000000e+02,2.167638888888888715e+01
3.430000000000000000e+02,2.185343660968661084e+01
3.440000000000000000e+02,2.163860398860398249e+01
3.450000000000000000e+02,2.124532585470085522e+01
3.460000000000000000e+02,2.093766915954415708e+01
3.470000000000000000e+02,2.066266470797721055e+01
3.480000000000000000e+02,2.037717236467236503e+01
3.490000000000000000e+02,2.008838141025640667e+01
3.500000000000000000e+02,1.971278490028490182e+01
3.510000000000000000e+02,1.931515313390313082e+01
3.520000000000000000e+02,1.891873219373219683e+01
3.530000000000000000e+02,1.852255163817663330e+01
3.540000000000000000e+02,1.811815349002848308e+01
3.550000000000000000e+02,1.771254006410256210e+01
3.560000000000000000e+02,1.721798433048432386e+01
3.570000000000000000e+02,1.671441417378917649e+01
3.580000000000000000e+02,1.633492699430199124e+01
3.590000000000000000e+02,1.596269141737891317e+01
3.600000000000000000e+02,1.558903133903134020e+01
3.610000000000000000e+02,1.521375534188033640e+01
3.620000000000000000e+02,1.475372150997151266e+01
3.630000000000000000e+02,1.430150017806267826e+01
3.640000000000000000e+02,1.398295940170939744e+01
3.650000000000000000e+02,1.367910879629629761e+01
3.660000000000000000e+02,1.352020121082620996e+01
3.670000000000000000e+02,1.336335024928775184e+01
3.680000000000000000e+02,1.322040598290598190e+01
3.690000000000000000e+02,1.308491363960113674e+01
3.700000000000000000e+02,1.298695690883190856e+01
3.710000000000000000e+02,1.289281962250712077e+01
3.720000000000000000e+02,1.281372863247863236e+01
3.730000000000000000e+02,1.275738069800569718e+01
3.740000000000000000e+02,1.277334401709401668e+01
3.750000000000000000e+02,1.279711983618233440e+01
3.760000000000000000e+02,1.284138176638176532e+01
3.770000000000000000e+02,1.287474626068375905e+01
3.780000000000000000e+02,1.288417913105413071e+01
3.790000000000000000e+02,1.293624020655270712e+01
3.800000000000000000e+02,1.306757478632478531e+01
3.810000000000000000e+02,1.321040776353276414e+01
3.820000000000000000e+02,1.337149216524216477e+01
3.830000000000000000e+02,1.353073361823362042e+01
3.840000000000000000e+02,1.368746438746438976e+01
3.850000000000000000e+02,1.389928329772079785e+01
3.860000000000000000e+02,1.417573896011396251e+01
3.870000000000000000e+02,1.434402154558404519e+01
3.880000000000000000e+02,1.440279558404558458e+01
3.890000000000000000e+02,1.448596866096866265e+01
3.900000000000000000e+02,1.459045584045584043e+01
3.910000000000000000e+02,1.467921118233618394e+01
3.920000000000000000e+02,1.475612535612535936e+01
3.930000000000000000e+02,1.482025908119658375e+01
3.940000000000000000e+02,1.487613069800569932e+01
3.950000000000000000e+02,1.486142272079771942e+01
3.960000000000000000e+02,1.480772792022791862e+01
3.970000000000000000e+02,1.475699786324786089e+01
3.980000000000000000e+02,1.470765669515669494e+01
3.990000000000000000e+02,1.467081552706552650e+01
4.000000000000000000e+02,1.463888888888888751e+01
4.010000000000000000e+02,1.456534900284900047e+01
4.020000000000000000e+02,1.447827635327635143e+01
4.030000000000000000e+02,1.439464921652421658e+01
4.040000000000000000e+02,1.431193019943019884e+01
4.050000000000000000e+02,1.422800925925925775e+01
4.060000000000000000e+02,1.414383903133902898e+01
4.070000000000000000e+02,1.405401976495726224e+01
4.080000000000000000e+02,1.396331908831908919e+01
4.090000000000000000e+02,1.389094106125356021e+01
4.100000000000000000e+02,1.382055733618233617e+01
4.110000000000000000e+02,1.379103899572649361e+01
4.120000000000000000e+02,1.376419159544159143e+01
4.130000000000000000e+02,1.372743500712250508e+01
4.140000000000000000e+02,1.368963675213675124e+01
4.150000000000000000e+02,1.358805199430199551e+01
4.160000000000000000e+02,1.348425925925925917e+01
4.170000000000000000e+02,1.333768696581196345e+01
4.180000000000000000e+02,1.319242343304843246e+01
4.190000000000000000e+02,1.306108885327635072e+01
4.200000000000000000e+02,1.292646011396011296e+01
4.210000000000000000e+02,1.276827813390313260e+01
4.220000000000000000e+02,1.261275819088318784e+01
4.230000000000000000e+02,1.247126513532763425e+01
4.240000000000000000e+02,1.233019943019942843e+01
4.250000000000000000e+02,1.219088319088319139e+01
4.260000000000000000e+02,1.204243233618233511e+01
4.270000000000000000e+02,1.186393340455840040e+01
4.280000000000000000e+02,1.169894943019942879e+01
4.290000000000000000e+02,1.157051727207976910e+01
4.300000000000000000e+02,1.144720441595441507e+01
4.310000000000000000e+02,1.133546118233618039e+01
4.320000000000000000e+02,1.123319088319088088e+01
4.330000000000000000e+02,1.114902065527065389e+01
4.340000000000000000e+02,1.106540242165242027e+01
4.350000000000000000e+02,1.098268340455840431e+01
4.360000000000000000e+02,1.092206196581196487e+01
4.370000000000000000e+02,1.089231214387464419e+01
4.380000000000000000e+02,1.084049145299145245e+01
4.390000000000000000e+02,1.076212606837606600e+01
4.400000000000000000e+02,1.071581196581196593e+01
4.410000000000000000e+02,1.070275106837606849e+01
4.420000000000000000e+02,1.070079237891738089e+01
4.430000000000000000e+02,1.070877403846153975e+01
4.440000000000000000e+02,1.073723290598290703e+01
4.450000000000000000e+02,1.078149483618233617e+01
4.460000000000000000e+02,1.082226673789173965e+01
4.470000000000000000e+02,1.086072382478632647e+01
4.480000000000000000e+02,1.090982905982905926e+01
4.490000000000000000e+02,1.096497507122507287e+01
4.500000000000000000e+02,1.104313568376068488e+01
4.510000000000000000e+02,1.113238514957265224e+01
4.520000000000000000e+02,1.121130698005698179e+01
4.530000000000000000e+02,1.128604433760684067e+01
4.540000000000000000e+02,1.137490206552706518e+01
4.550000000000000000e+02,1.146850516381766383e+01
4.560000000000000000e+02,1.155470085470085628e+01
4.570000000000000000e+02,1.163887108262108327e+01
4.580000000000000000e+02,1.176300747863248297e+01
4.590000000000000000e+02,1.189579326923076863e+01
4.600000000000000000e+02,1.190705128205128283e+01
4.610000000000000000e+02,1.189834401709401668e+01
4.620000000000000000e+02,1.189548611111111143e+01
4.630000000000000000e+02,1.189330929487179311e+01
4.640000000000000000e+02,1.192158119658119730e+01
4.650000000000000000e+02,1.195205662393162527e+01
4.660000000000000000e+02,1.197690527065527100e+01
4.670000000000000000e+02,1.200154469373219257e+01
4.680000000000000000e+02,1.202113603988603963e+01
4.690000000000000000e+02,1.204060274216524284e+01
4.700000000000000000e+02,1.205729166666666607e+01
4.710000000000000000e+02,1.207317040598290525e+01
4.720000000000000000e+02,1.207970085470085486e+01
4.730000000000000000e+02,1.207718126780626555e+01
4.740000000000000000e+02,1.200607193732193778e+01
4.750000000000000000e+02,1.193218037749287852e+01
4.760000000000000000e+02,1.184293091168091117e+01
4.770000000000000000e+02,1.174760950854700603e+01
4.780000000000000000e+02,1.162643340455839969e+01
4.790000000000000000e+02,1.151266915954415992e+01
4.800000000000000000e+02,1.142414529914529808e+01
4.810000000000000000e+02,1.139764066951567045e+01
4.820000000000000000e+02,1.154421296296296617e+01
4.830000000000000000e+02,1.173157496438747494e+01
4.840000000000000000e+02,1.201383547008546770e+01
4.850000000000000000e+02,1.226451210826210669e+01
4.860000000000000000e+02,1.245316951566951680e+01
4.870000000000000000e+02,1.262634882478632647e+01
4.880000000000000000e+02,1.277364672364672771e+01
4.890000000000000000e+02,1.288992610398860172e+01
4.900000000000000000e+02,1.296176103988603856e+01
4.910000000000000000e+02,1.301929754273504258e+01
4.920000000000000000e+02,1.305920584045584043e+01
4.930000000000000000e+02,1.309665242165242205e+01
4.940000000000000000e+02,1.313148148148147953e+01
4.950000000000000000e+02,1.308949875356125148e+01
4.960000000000000000e+02,1.297702991452991128e+01
4.970000000000000000e+02,1.282364672364671776e+01
4.980000000000000000e+02,1.263789173789173148e+01
4.990000000000000000e+02,1.244350071225071375e+01
5.000000000000000000e+02,1.224323361823361900e+01
5.010000000000000000e+02,1.205030270655270463e+01
5.020000000000000000e+02,1.186164529914529631e+01
5.030000000000000000e+02,1.172490651709401277e+01
5.040000000000000000e+02,1.161388888888888893e+01
5.050000000000000000e+02,1.156327902421652354e+01
5.060000000000000000e+02,1.153788283475783416e+01
5.070000000000000000e+02,1.148824786324786196e+01
5.080000000000000000e+02,1.143019943019942808e+01
5.090000000000000000e+02,1.145638799857549728e+01
5.100000000000000000e+02,1.150645477207977230e+01
5.110000000000000000e+02,1.165006677350427466e+01
5.120000000000000000e+02,1.181477920227920464e+01
5.130000000000000000e+02,1.202961182336182944e+01
5.140000000000000000e+02,1.225309829059828637e+01
5.150000000000000000e+02,1.242881944444444464e+01
5.160000000000000000e+02,1.259861111111111498e+01
5.170000000000000000e+02,1.268908475783476142e+01
5.180000000000000000e+02,1.277325498575498841e+01
5.190000000000000000e+02,1.278613782051282044e+01
5.200000000000000000e+02,1.279629629629629584e+01
5.210000000000000000e+02,1.280282674501424545e+01
5.220000000000000000e+02,1.280943732193732210e+01
5.230000000000000000e+02,1.281814458689458647e+01
5.240000000000000000e+02,1.281536680911681003e+01
5.250000000000000000e+02,1.266806891025641058e+01
5.260000000000000000e+02,1.251988960113960125e+01
5.270000000000000000e+02,1.236461004273504116e+01
5.280000000000000000e+02,1.220430911680911201e+01
5.290000000000000000e+02,1.201492610398860705e+01
5.300000000000000000e+02,1.183288817663817660e+01
5.310000000000000000e+02,1.168341346153846061e+01
5.320000000000000000e+02,1.156278490028490147e+01
5.330000000000000000e+02,1.154391915954415992e+01
5.340000000000000000e+02,1.153589743589743577e+01
5.350000000000000000e+02,1.155911680911681039e+01
5.360000000000000000e+02,1.157101139601139650e+01
5.370000000000000000e+02,1.155577368233618252e+01
5.380000000000000000e+02,1.156481481481481666e+01
5.390000000000000000e+02,1.162286324786324698e+01
5.400000000000000000e+02,1.168839031339031287e+01
5.410000000000000000e+02,1.176675569800569932e+01
5.420000000000000000e+02,1.184394586894587142e+01
5.430000000000000000e+02,1.191940883190883405e+01
5.440000000000000000e+02,1.199839743589743435e+01
5.450000000000000000e+02,1.208184205840455938e+01
5.460000000000000000e+02,1.218924501424501550e+01
5.470000000000000000e+02,1.232275641025641377e+01
5.480000000000000000e+02,1.247795584045584860e+01
5.490000000000000000e+02,1.265355235042735060e+01
5.500000000000000000e+02,1.281112001424501479e+01
5.510000000000000000e+02,1.295406428062678295e+01
5.520000000000000000e+02,1.311837606837607240e+01
5.530000000000000000e+02,1.329760060541311084e+01
5.540000000000000000e+02,1.343686787749287603e+01
5.550000000000000000e+02,1.355223913817663828e+01
5.560000000000000000e+02,1.366761039886040052e+01
5.570000000000000000e+02,1.378298165954416277e+01
5.580000000000000000e+02,1.389124821937322452e+01
5.590000000000000000e+02,1.399646100427350426e+01
5.600000000000000000e+02,1.408938746438746570e+01
5.610000000000000000e+02,1.417791132478632754e+01
5.620000000000000000e+02,1.418903133903133984e+01
5.630000000000000000e+02,1.417742165242165164e+01
5.640000000000000000e+02,1.412409188034188112e+01
5.650000000000000000e+02,1.406096420940170866e+01
5.660000000000000000e+02,1.405128205128205110e+01
5.670000000000000000e+02,1.405128205128205110e+01
5.680000000000000000e+02,1.398910256410256103e+01
5.690000000000000000e+02,1.391871883903133877e+01
5.700000000000000000e+02,1.385300925925925775e+01
5.710000000000000000e+02,1.378770477207977052e+01
5.720000000000000000e+02,1.368837250712250331e+01
5.730000000000000000e+02,1.358751335470085131e+01
5.740000000000000000e+02,1.356093304843304992e+01
5.750000000000000000e+02,1.353494480056980187e+01
5.760000000000000000e+02,1.351317663817663828e+01
5.770000000000000000e+02,1.349405270655270606e+01
5.780000000000000000e+02,1.351146723646723657e+01
5.790000000000000000e+02,1.352956285612535403e+01
5.800000000000000000e+02,1.355350783475783594e+01
5.810000000000000000e+02,1.358165064102564301e+01
5.820000000000000000e+02,1.363534544159544382e+01
5.830000000000000000e+02,1.370233707264957879e+01
5.840000000000000000e+02,1.383076923076923670e+01
5.850000000000000000e+02,1.395499465811965933e+01
5.860000000000000000e+02,1.406383547008547197e+01
5.870000000000000000e+02,1.416555822649572960e+01
5.880000000000000000e+02,1.424610042735042903e+01
5.890000000000000000e+02,1.435154024216524782e+01
5.900000000000000000e+02,1.451842948717948545e+01
5.910000000000000000e+02,1.467517361111111107e+01
5.920000000000000000e+02,1.481086182336182588e+01
5.930000000000000000e+02,1.495469195156695719e+01
5.940000000000000000e+02,1.511287393162393933e+01
5.950000000000000000e+02,1.529102118945868938e+01
5.960000000000000000e+02,1.549926994301994476e+01
5.970000000000000000e+02,1.555612535612535297e+01
5.980000000000000000e+02,1.541680911680911237e+01
