Wavenumber,Intensity
0.000000000000000000e+00,7.424501424501424651e+01
1.000000000000000000e+00,5.188461538461538680e+01
2.000000000000000000e+00,2.934045584045584221e+01
3.000000000000000000e+00,7.257834757834758399e+00
4.000000000000000000e+00,9.306267806267806364e+00
5.000000000000000000e+00,1.147863247863247693e+01
6.000000000000000000e+00,1.423504273504273421e+01
7.000000000000000000e+00,1.598148148148148096e+01
8.000000000000000000e+00,1.721794871794871895e+01
9.000000000000000000e+00,1.892165242165242134e+01
1.000000000000000000e+01,2.022222222222222143e+01
1.100000000000000000e+01,1.994159544159544240e+01
1.200000000000000000e+01,1.903133903133903004e+01
1.300000000000000000e+01,1.810968660968660870e+01
1.400000000000000000e+01,1.745584045584045541e+01
1.500000000000000000e+01,1.923504273504273598e+01
1.600000000000000000e+01,2.079487179487179205e+01
1.700000000000000000e+01,2.233618233618233617e+01
1.800000000000000000e+01,2.459971509971509818e+01
1.900000000000000000e+01,2.685042735042734918e+01
2.000000000000000000e+01,2.917236467236466879e+01
2.100000000000000000e+01,3.214957264957264726e+01
2.200000000000000000e+01,3.879202279202279158e+01
2.300000000000000000e+01,4.665099715099714928e+01
2.400000000000000000e+01,5.646866096866096996e+01
2.500000000000000000e+01,6.430626780626779748e+01
2.600000000000000000e+01,7.896296296296297612e+01
2.700000000000000000e+01,9.805555555555555713e+01
2.800000000000000000e+01,1.140413105413105512e+02
2.900000000000000000e+01,1.298176638176638278e+02
3.000000000000000000e+01,1.497692307692307736e+02
3.100000000000000000e+01,1.662820512820512988e+02
3.200000000000000000e+01,1.830698005698005773e+02
3.300000000000000000e+01,1.963276353276353348e+02
3.400000000000000000e+01,2.027621082621082280e+02
3.500000000000000000e+01,2.092264957264957275e+02
3.600000000000000000e+01,2.175982905982906175e+02
3.700000000000000000e+01,2.202521367521367495e+02
3.800000000000000000e+01,2.230185185185185048e+02
3.900000000000000000e+01,2.263732193732193707e+02
4.000000000000000000e+01,2.276951566951566974e+02
4.100000000000000000e+01,2.250925925925925810e+02
4.200000000000000000e+01,2.218148148148148096e+02
4.300000000000000000e+01,2.191937321937321883e+02
4.400000000000000000e+01,2.130128205128205252e+02
4.500000000000000000e+01,2.016623931623931583e+02
4.600000000000000000e+01,1.930498575498575349e+02
4.700000000000000000e+01,1.849672364672364608e+02
4.800000000000000000e+01,1.740940170940170901e+02
4.900000000000000000e+01,1.655227920227920322e+02
5.000000000000000000e+01,1.571011396011396073e+02
5.100000000000000000e+01,1.453148148148148096e+02
5.200000000000000000e+01,1.309857549857549657e+02
5.300000000000000000e+01,1.167421652421652425e+02
5.400000000000000000e+01,9.927492877492876744e+01
5.500000000000000000e+01,8.704415954415954104e+01
5.600000000000000000e+01,7.672649572649572747e+01
5.700000000000000000e+01,6.378774928774928554e+01
5.800000000000000000e+01,5.359259259259258812e+01
5.900000000000000000e+01,4.748005698005697894e+01
6.000000000000000000e+01,4.147720797720797492e+01
6.100000000000000000e+01,3.664529914529914123e+01
6.200000000000000000e+01,3.186894586894586823e+01
6.300000000000000000e+01,2.975925925925926308e+01
6.400000000000000000e+01,2.828917378917378755e+01
6.500000000000000000e+01,2.681908831908831914e+01
6.600000000000000000e+01,2.509971509971509818e+01
6.700000000000000000e+01,2.380199430199430211e+01
6.800000000000000000e+01,2.213105413105413177e+01
6.900000000000000000e+01,2.094017094017094038e+01
7.000000000000000000e+01,2.081196581196581619e+01
7.100000000000000000e+01,2.123646723646723800e+01
7.200000000000000000e+01,2.156125356125356163e+01
7.300000000000000000e+01,2.190883190883191034e+01
7.400000000000000000e+01,2.113675213675213627e+01
7.500000000000000000e+01,2.059686609686609771e+01
7.600000000000000000e+01,2.002991452991453158e+01
7.700000000000000000e+01,1.924928774928774899e+01
7.800000000000000000e+01,1.847150997150997043e+01
7.900000000000000000e+01,1.767521367521367281e+01
8.000000000000000000e+01,1.668660968660968535e+01
8.100000000000000000e+01,1.595584045584045718e+01
8.200000000000000000e+01,1.522222222222222143e+01
8.300000000000000000e+01,1.431908831908832092e+01
8.400000000000000000e+01,1.369373219373219541e+01
8.500000000000000000e+01,1.338176638176638278e+01
8.600000000000000000e+01,1.310113960113960019e+01
8.700000000000000000e+01,1.290883190883190856e+01
8.800000000000000000e+01,1.275356125356125325e+01
8.900000000000000000e+01,1.278490028490028330e+01
9.000000000000000000e+01,1.287179487179487047e+01
9.100000000000000000e+01,1.289031339031338952e+01
9.200000000000000000e+01,1.314814814814814703e+01
9.300000000000000000e+01,1.346438746438746570e+01
9.400000000000000000e+01,1.377207977207977230e+01
9.500000000000000000e+01,1.431481481481481488e+01
9.600000000000000000e+01,1.443019943019942986e+01
9.700000000000000000e+01,1.463532763532763603e+01
9.800000000000000000e+01,1.478632478632478886e+01
9.900000000000000000e+01,1.489601139601139579e+01
1.000000000000000000e+02,1.479059829059828957e+01
1.010000000000000000e+02,1.469373219373219364e+01
1.020000000000000000e+02,1.463105413105413000e+01
1.030000000000000000e+02,1.446011396011395966e+01
1.040000000000000000e+02,1.429772079772079785e+01
1.050000000000000000e+02,1.413247863247863023e+01
1.060000000000000000e+02,1.395441595441595517e+01
1.070000000000000000e+02,1.381623931623931689e+01
1.080000000000000000e+02,1.376353276353276023e+01
1.090000000000000000e+02,1.369088319088319139e+01
1.100000000000000000e+02,1.349145299145299326e+01
1.110000000000000000e+02,1.320370370370370416e+01
1.120000000000000000e+02,1.294586894586894488e+01
1.130000000000000000e+02,1.263532763532763603e+01
1.140000000000000000e+02,1.235754985754985746e+01
1.150000000000000000e+02,1.208404558404558493e+01
1.160000000000000000e+02,1.173361823361823220e+01
1.170000000000000000e+02,1.148148148148148096e+01
1.180000000000000000e+02,1.126210826210826177e+01
1.190000000000000000e+02,1.109686609686609593e+01
1.200000000000000000e+02,1.093447293447293411e+01
1.210000000000000000e+02,1.087606837606837651e+01
1.220000000000000000e+02,1.072222222222222143e+01
1.230000000000000000e+02,1.069658119658119766e+01
1.240000000000000000e+02,1.071225071225071268e+01
1.250000000000000000e+02,1.079914529914529986e+01
1.260000000000000000e+02,1.087464387464387450e+01
1.270000000000000000e+02,1.098290598290598297e+01
1.280000000000000000e+02,1.115811965811965933e+01
1.290000000000000000e+02,1.130484330484330435e+01
1.300000000000000000e+02,1.148860398860398924e+01
1.310000000000000000e+02,1.165384615384615330e+01
1.320000000000000000e+02,1.191452991452991483e+01
1.330000000000000000e+02,1.189743589743589780e+01
1.340000000000000000e+02,1.189316239316239177e+01
1.350000000000000000e+02,1.195299145299145493e+01
1.360000000000000000e+02,1.200142450142450024e+01
1.370000000000000000e+02,1.203988603988604034e+01
1.380000000000000000e+02,1.207264957264957239e+01
1.390000000000000000e+02,1.208547008547008517e+01
1.400000000000000000e+02,1.194586894586894665e+01
1.410000000000000000e+02,1.177065527065527029e+01
1.420000000000000000e+02,1.153276353276353206e+01
1.430000000000000000e+02,1.135897435897435770e+01
1.440000000000000000e+02,1.164672364672364857e+01
1.450000000000000000e+02,1.220085470085470014e+01
1.460000000000000000e+02,1.257122507122507038e+01
1.470000000000000000e+02,1.286039886039885971e+01
1.480000000000000000e+02,1.300142450142450024e+01
1.490000000000000000e+02,1.307977207977207890e+01
1.500000000000000000e+02,1.314814814814814703e+01
1.510000000000000000e+02,1.292735042735042583e+01
1.520000000000000000e+02,1.256267806267806186e+01
1.530000000000000000e+02,1.216951566951567010e+01
1.540000000000000000e+02,1.179914529914529986e+01
1.550000000000000000e+02,1.158119658119657913e+01
1.560000000000000000e+02,1.153133903133903182e+01
1.570000000000000000e+02,1.141737891737891708e+01
1.580000000000000000e+02,1.151566951566951502e+01
1.590000000000000000e+02,1.183903133903133842e+01
1.600000000000000000e+02,1.227777777777777679e+01
1.610000000000000000e+02,1.261111111111111249e+01
1.620000000000000000e+02,1.277635327635327656e+01
1.630000000000000000e+02,1.279629629629629584e+01
1.640000000000000000e+02,1.280911680911680861e+01
1.650000000000000000e+02,1.282621082621082564e+01
1.660000000000000000e+02,1.253703703703703809e+01
1.670000000000000000e+02,1.223219373219373374e+01
1.680000000000000000e+02,1.186039886039885971e+01
1.690000000000000000e+02,1.156695156695156790e+01
1.700000000000000000e+02,1.152991452991452981e+01
1.710000000000000000e+02,1.157549857549857641e+01
1.720000000000000000e+02,1.154558404558404483e+01
1.730000000000000000e+02,1.165954415954415957e+01
1.740000000000000000e+02,1.181339031339031465e+01
1.750000000000000000e+02,1.196153846153846168e+01
1.760000000000000000e+02,1.212535612535612550e+01
1.770000000000000000e+02,1.238746438746438905e+01
1.780000000000000000e+02,1.273219373219373374e+01
1.790000000000000000e+02,1.301282051282051277e+01
1.800000000000000000e+02,1.336467236467236397e+01
1.810000000000000000e+02,1.359116809116809144e+01
1.820000000000000000e+02,1.381766381766381890e+01
1.830000000000000000e+02,1.402421652421652531e+01
1.840000000000000000e+02,1.419800569800569967e+01
1.850000000000000000e+02,1.417521367521367459e+01
1.860000000000000000e+02,1.405128205128205110e+01
1.870000000000000000e+02,1.405128205128205110e+01
1.880000000000000000e+02,1.391310541310541282e+01
1.890000000000000000e+02,1.378490028490028330e+01
1.900000000000000000e+02,1.358689458689458718e+01
1.910000000000000000e+02,1.353561253561253608e+01
1.920000000000000000e+02,1.349287749287749172e+01
1.930000000000000000e+02,1.352706552706552579e+01
1.940000000000000000e+02,1.357407407407407618e+01
1.950000000000000000e+02,1.367948717948718063e+01
1.960000000000000000e+02,1.393162393162393187e+01
1.970000000000000000e+02,1.414529914529914656e+01
1.980000000000000000e+02,1.430341880341880234e+01
1.990000000000000000e+02,1.463105413105413000e+01
2.000000000000000000e+02,1.489743589743589780e+01
2.010000000000000000e+02,1.520797720797720842e+01
2.020000000000000000e+02,1.561680911680911699e+01
2.030000000000000000e+02,1.534330484330484268e+01
2.040000000000000000e+02,1.514529914529914656e+01
2.050000000000000000e+02,1.485754985754985746e+01
2.060000000000000000e+02,1.472792022792022948e+01
2.070000000000000000e+02,1.490598290598290809e+01
2.080000000000000000e+02,1.513960113960114029e+01
2.090000000000000000e+02,1.536182336182336172e+01
2.100000000000000000e+02,1.565527065527065531e+01
2.110000000000000000e+02,1.614245014245014076e+01
2.120000000000000000e+02,1.653276353276353561e+01
2.130000000000000000e+02,1.694729344729344689e+01
2.140000000000000000e+02,1.749145299145299148e+01
2.150000000000000000e+02,1.802421652421652354e+01
2.160000000000000000e+02,1.841737891737891530e+01
2.170000000000000000e+02,1.891168091168091081e+01
2.180000000000000000e+02,1.912678062678062574e+01
2.190000000000000000e+02,1.932193732193732316e+01
2.200000000000000000e+02,1.963390313390313224e+01
2.210000000000000000e+02,1.985612535612535723e+01
2.220000000000000000e+02,2.014245014245014076e+01
2.230000000000000000e+02,2.038034188034187721e+01
2.240000000000000000e+02,2.059686609686609771e+01
2.250000000000000000e+02,2.081623931623931867e+01
2.260000000000000000e+02,2.095868945868945943e+01
2.270000000000000000e+02,2.114387464387464277e+01
2.280000000000000000e+02,2.134472934472934469e+01
2.290000000000000000e+02,2.157264957264957062e+01
2.300000000000000000e+02,2.182051282051281760e+01
2.310000000000000000e+02,2.211253561253561273e+01
2.320000000000000000e+02,2.241880341880341732e+01
2.330000000000000000e+02,2.272792022792022593e+01
2.340000000000000000e+02,2.313105413105413177e+01
2.350000000000000000e+02,2.349430199430199195e+01
2.360000000000000000e+02,2.388176638176638278e+01
2.370000000000000000e+02,2.442307692307692335e+01
2.380000000000000000e+02,2.488034188034187721e+01
2.390000000000000000e+02,2.537891737891737876e+01
2.400000000000000000e+02,2.575783475783475751e+01
2.410000000000000000e+02,2.614387464387464277e+01
2.420000000000000000e+02,2.650427350427350248e+01
2.430000000000000000e+02,2.673361823361823397e+01
2.440000000000000000e+02,2.680341880341880412e+01
2.450000000000000000e+02,2.688034188034187721e+01
2.460000000000000000e+02,2.693162393162393187e+01
2.470000000000000000e+02,2.682763532763532410e+01
2.480000000000000000e+02,2.664529914529914478e+01
2.490000000000000000e+02,2.649145299145299148e+01
2.500000000000000000e+02,2.639458689458689378e+01
2.510000000000000000e+02,2.611965811965812279e+01
2.520000000000000000e+02,2.577635327635328011e+01
2.530000000000000000e+02,2.553703703703703809e+01
2.540000000000000000e+02,2.532193732193732316e+01
2.550000000000000000e+02,2.514957264957265082e+01
2.560000000000000000e+02,2.501566951566951502e+01
2.570000000000000000e+02,2.484188034188034067e+01
2.580000000000000000e+02,2.444159544159543884e+01
2.590000000000000000e+02,2.399430199430199195e+01
2.600000000000000000e+02,2.357407407407407618e+01
2.610000000000000000e+02,2.310826210826211025e+01
2.620000000000000000e+02,2.247863247863247693e+01
2.630000000000000000e+02,2.192735042735042938e+01
2.640000000000000000e+02,2.118945868945868938e+01
2.650000000000000000e+02,2.062820512820512775e+01
2.660000000000000000e+02,2.022222222222222143e+01
2.670000000000000000e+02,1.969230769230769340e+01
2.680000000000000000e+02,1.927777777777777501e+01
2.690000000000000000e+02,1.911396011396011474e+01
2.700000000000000000e+02,1.931481481481481310e+01
2.710000000000000000e+02,1.945726495726495742e+01
2.720000000000000000e+02,1.955413105413105157e+01
2.730000000000000000e+02,2.013390313390313224e+01
2.740000000000000000e+02,2.075925925925925597e+01
2.750000000000000000e+02,2.131339031339031465e+01
2.760000000000000000e+02,2.199287749287749349e+01
2.770000000000000000e+02,2.232336182336182517e+01
2.780000000000000000e+02,2.269230769230769340e+01
2.790000000000000000e+02,2.310826210826210669e+01
2.800000000000000000e+02,2.321794871794871895e+01
2.810000000000000000e+02,2.312535612535612373e+01
2.820000000000000000e+02,2.299715099715099598e+01
2.830000000000000000e+02,2.290028490028490182e+01
2.840000000000000000e+02,2.262678062678062929e+01
2.850000000000000000e+02,2.227065527065527206e+01
2.860000000000000000e+02,2.186039886039885971e+01
2.870000000000000000e+02,2.156125356125356163e+01
2.880000000000000000e+02,2.196153846153845635e+01
2.890000000000000000e+02,2.231766381766381713e+01
2.900000000000000000e+02,2.265954415954415779e+01
2.910000000000000000e+02,2.300427350427350248e+01
2.920000000000000000e+02,2.323789173789174001e+01
2.930000000000000000e+02,2.344729344729344689e+01
2.940000000000000000e+02,2.372792022792022593e+01
2.950000000000000000e+02,2.411965811965812279e+01
2.960000000000000000e+02,2.451139601139601254e+01
2.970000000000000000e+02,2.503133903133903004e+01
2.980000000000000000e+02,2.550427350427350248e+01
2.990000000000000000e+02,2.595441595441595339e+01
3.000000000000000000e+02,2.659401709401709368e+01
3.010000000000000000e+02,2.718091168091168086e+01
3.020000000000000000e+02,2.922934472934473149e+01
3.030000000000000000e+02,3.235612535612535368e+01
3.040000000000000000e+02,3.562962962962962621e+01
3.050000000000000000e+02,3.976638176638176247e+01
3.060000000000000000e+02,4.569230769230770051e+01
3.070000000000000000e+02,5.243589743589743790e+01
3.080000000000000000e+02,6.105698005698005915e+01
3.090000000000000000e+02,6.792592592592592382e+01
3.100000000000000000e+02,7.584045584045583155e+01
3.110000000000000000e+02,8.580911680911681572e+01
3.120000000000000000e+02,9.371225071225070735e+01
3.130000000000000000e+02,1.007521367521367353e+02
3.140000000000000000e+02,1.061068376068376011e+02
3.150000000000000000e+02,1.103931623931623989e+02
3.160000000000000000e+02,1.147136752136752165e+02
3.170000000000000000e+02,1.143418803418803549e+02
3.180000000000000000e+02,1.110754985754985711e+02
3.190000000000000000e+02,1.077592592592592524e+02
3.200000000000000000e+02,1.038176638176638136e+02
3.210000000000000000e+02,9.695441595441594984e+01
3.220000000000000000e+02,9.034472934472933048e+01
3.230000000000000000e+02,8.186752136752136266e+01
3.240000000000000000e+02,7.496723646723647505e+01
3.250000000000000000e+02,6.787464387464386562e+01
3.260000000000000000e+02,5.902706552706553111e+01
3.270000000000000000e+02,5.190740740740741188e+01
3.280000000000000000e+02,4.642165242165242489e+01
3.290000000000000000e+02,4.197008547008547197e+01
3.300000000000000000e+02,3.853561253561253608e+01
3.310000000000000000e+02,3.503133903133903004e+01
3.320000000000000000e+02,3.274928774928775255e+01
3.330000000000000000e+02,3.140313390313390229e+01
3.340000000000000000e+02,3.005413105413105157e+01
3.350000000000000000e+02,2.871367521367521292e+01
3.360000000000000000e+02,2.831054131054131062e+01
3.370000000000000000e+02,2.795014245014245091e+01
3.380000000000000000e+02,2.744301994301994441e+01
3.390000000000000000e+02,2.750427350427350248e+01
3.400000000000000000e+02,2.796296296296296191e+01
3.410000000000000000e+02,2.852991452991453158e+01
3.420000000000000000e+02,2.908119658119658268e+01
3.430000000000000000e+02,2.988461538461538325e+01
3.440000000000000000e+02,3.114529914529914478e+01
3.450000000000000000e+02,3.203561253561253608e+01
3.460000000000000000e+02,3.306837606837606813e+01
3.470000000000000000e+02,3.586894586894586467e+01
3.480000000000000000e+02,3.815669515669515732e+01
3.490000000000000000e+02,4.039316239316239177e+01
3.500000000000000000e+02,4.358119658119658624e+01
3.510000000000000000e+02,4.673646723646723444e+01
3.520000000000000000e+02,4.982193732193732671e+01
3.530000000000000000e+02,5.365811965811965223e+01
3.540000000000000000e+02,5.744301994301994085e+01
3.550000000000000000e+02,6.126210826210825644e+01
3.560000000000000000e+02,6.610683760683760113e+01
3.570000000000000000e+02,7.008689458689458718e+01
3.580000000000000000e+02,7.244159544159543884e+01
3.590000000000000000e+02,7.547293447293448310e+01
3.600000000000000000e+02,7.780056980056980365e+01
3.610000000000000000e+02,7.967948717948716819e+01
3.620000000000000000e+02,7.971937321937322452e+01
3.630000000000000000e+02,7.980911680911681572e+01
3.640000000000000000e+02,7.989173789173788975e+01
3.650000000000000000e+02,7.795868945868944877e+01
3.660000000000000000e+02,7.532621082621082564e+01
3.670000000000000000e+02,7.265669515669515022e+01
3.680000000000000000e+02,6.943447293447293589e+01
3.690000000000000000e+02,6.473504273504273954e+01
3.700000000000000000e+02,6.010541310541310622e+01
3.710000000000000000e+02,5.429487179487179560e+01
3.720000000000000000e+02,4.969800569800569434e+01
3.730000000000000000e+02,4.596581196581195883e+01
3.740000000000000000e+02,4.120655270655270641e+01
3.750000000000000000e+02,3.734472934472933758e+01
3.760000000000000000e+02,3.438034188034188077e+01
3.770000000000000000e+02,3.176923076923077005e+01
3.780000000000000000e+02,2.975498575498575349e+01
3.790000000000000000e+02,2.742022792022791933e+01
3.800000000000000000e+02,2.659401709401709368e+01
3.810000000000000000e+02,2.590598290598290987e+01
3.820000000000000000e+02,2.496153846153846345e+01
3.830000000000000000e+02,2.432478632478632719e+01
3.840000000000000000e+02,2.402706552706553111e+01
3.850000000000000000e+02,2.354985754985755264e+01
3.860000000000000000e+02,2.321652421652421694e+01
3.870000000000000000e+02,2.320940170940170688e+01
3.880000000000000000e+02,2.375356125356125503e+01
3.890000000000000000e+02,2.418803418803419092e+01
3.900000000000000000e+02,2.462962962962962976e+01
3.910000000000000000e+02,2.475071225071225101e+01
3.920000000000000000e+02,2.483760683760683818e+01
3.930000000000000000e+02,2.489173789173789331e+01
3.940000000000000000e+02,2.479059829059829312e+01
3.950000000000000000e+02,2.428490028490028507e+01
3.960000000000000000e+02,2.376495726495726402e+01
3.970000000000000000e+02,2.314672364672364324e+01
3.980000000000000000e+02,2.277635327635327656e+01
