Wavenumber,Intensity
0.000000000000000000e+00,3.084226476584413512e-01
1.000000000000000000e+00,1.822291689000269110e-01
2.000000000000000000e+00,8.828946965494494092e-02
3.000000000000000000e+00,2.660354585470201677e-02
4.000000000000000000e+00,0.000000000000000000e+00
5.000000000000000000e+00,5.690553863301723615e-03
6.000000000000000000e+00,2.608107972161772051e-02
7.000000000000000000e+00,3.512703956775246883e-02
8.000000000000000000e+00,4.344257169868373514e-02
9.000000000000000000e+00,4.961340567152761755e-02
1.000000000000000000e+01,5.342462141872538622e-02
1.100000000000000000e+01,5.389355389065456081e-02
1.200000000000000000e+01,4.998872355828153091e-02
1.300000000000000000e+01,4.642082654860647806e-02
1.400000000000000000e+01,4.655322066612400944e-02
1.500000000000000000e+01,5.038385310694013658e-02
1.600000000000000000e+01,5.767926621830643530e-02
1.700000000000000000e+01,6.702982324731067421e-02
1.800000000000000000e+01,7.600140353887877009e-02
1.900000000000000000e+01,8.490708445415390271e-02
2.000000000000000000e+01,9.709353948073264073e-02
2.100000000000000000e+01,1.147590683112961196e-01
2.200000000000000000e+01,1.426118934700026097e-01
2.300000000000000000e+01,1.757811901617968298e-01
2.400000000000000000e+01,2.155458156158535921e-01
2.500000000000000000e+01,2.671645411613665644e-01
2.600000000000000000e+01,3.311500208056832872e-01
2.700000000000000000e+01,4.026178295451952049e-01
2.800000000000000000e+01,4.843752003101389203e-01
2.900000000000000000e+01,5.647790748203860289e-01
3.000000000000000000e+01,6.445413677347037185e-01
3.100000000000000000e+01,7.267510626475166546e-01
3.200000000000000000e+01,7.986673803081300038e-01
3.300000000000000000e+01,8.518495239883697723e-01
3.400000000000000000e+01,8.955126595443639870e-01
3.500000000000000000e+01,9.266417838446144861e-01
3.600000000000000000e+01,9.501773907757375959e-01
3.700000000000000000e+01,9.719074198132642284e-01
3.800000000000000000e+01,9.887439287648214226e-01
3.900000000000000000e+01,9.971695233138814229e-01
4.000000000000000000e+01,1.000000000000000000e+00
4.100000000000000000e+01,9.956569261790675363e-01
4.200000000000000000e+01,9.843877640075594515e-01
4.300000000000000000e+01,9.623846664576058973e-01
4.400000000000000000e+01,9.319221086433095991e-01
4.500000000000000000e+01,8.948200885644154168e-01
4.600000000000000000e+01,8.504248192826833197e-01
4.700000000000000000e+01,8.063818740958595965e-01
4.800000000000000000e+01,7.673708821651700207e-01
4.900000000000000000e+01,7.264916473884683867e-01
5.000000000000000000e+01,6.807222367476399860e-01
5.100000000000000000e+01,6.308951914386488058e-01
5.200000000000000000e+01,5.676729751300605420e-01
5.300000000000000000e+01,4.974022861817045116e-01
5.400000000000000000e+01,4.313520357341371625e-01
5.500000000000000000e+01,3.698116058530535044e-01
5.600000000000000000e+01,3.124608130607674505e-01
5.700000000000000000e+01,2.646067163544582601e-01
5.800000000000000000e+01,2.213584952360409530e-01
5.900000000000000000e+01,1.862257229422968341e-01
6.000000000000000000e+01,1.598990958600258194e-01
6.100000000000000000e+01,1.384906451536112859e-01
6.200000000000000000e+01,1.208784451269536986e-01
6.300000000000000000e+01,1.090430618083724906e-01
6.400000000000000000e+01,1.008331407749683689e-01
6.500000000000000000e+01,9.527937602952997465e-02
6.600000000000000000e+01,8.870511748371293081e-02
6.700000000000000000e+01,8.153566586465346711e-02
6.800000000000000000e+01,7.526313155489566808e-02
6.900000000000000000e+01,7.140248696436807263e-02
7.000000000000000000e+01,6.999902106563400672e-02
7.100000000000000000e+01,7.166278619267660299e-02
7.200000000000000000e+01,7.357817825926668553e-02
7.300000000000000000e+01,7.400289099011855831e-02
7.400000000000000000e+01,7.282989899311999304e-02
7.500000000000000000e+01,7.043475906682014620e-02
7.600000000000000000e+01,6.729374594555644074e-02
7.700000000000000000e+01,6.450443589074103534e-02
7.800000000000000000e+01,6.106137087849651535e-02
7.900000000000000000e+01,5.738459567356249402e-02
8.000000000000000000e+01,5.389261009071728836e-02
8.100000000000000000e+01,5.029301599261318256e-02
8.200000000000000000e+01,4.673058173788133263e-02
8.300000000000000000e+01,4.370876849243746781e-02
8.400000000000000000e+01,4.116287524907961959e-02
8.500000000000000000e+01,3.942582178440595664e-02
8.600000000000000000e+01,3.845484337283442550e-02
8.700000000000000000e+01,3.788586800055920162e-02
8.800000000000000000e+01,3.767922632131783661e-02
8.900000000000000000e+01,3.776991892696296427e-02
9.000000000000000000e+01,3.821282383788161124e-02
9.100000000000000000e+01,3.908043340977460783e-02
9.200000000000000000e+01,4.014370681799554752e-02
9.300000000000000000e+01,4.186318616242178103e-02
9.400000000000000000e+01,4.381735825930461320e-02
9.500000000000000000e+01,4.557451455739377350e-02
9.600000000000000000e+01,4.705453348902394889e-02
9.700000000000000000e+01,4.826441782130360542e-02
9.800000000000000000e+01,4.892847948992013613e-02
9.900000000000000000e+01,4.941086927965961106e-02
1.000000000000000000e+02,4.951591747535557392e-02
1.010000000000000000e+02,4.931766909640907665e-02
1.020000000000000000e+02,4.892291796330733994e-02
1.030000000000000000e+02,4.851847630542355239e-02
1.040000000000000000e+02,4.797170025305699109e-02
1.050000000000000000e+02,4.731492606318730282e-02
1.060000000000000000e+02,4.679984561921583797e-02
1.070000000000000000e+02,4.647238893684923350e-02
1.080000000000000000e+02,4.624532781217224886e-02
1.090000000000000000e+02,4.589116993646615017e-02
1.100000000000000000e+02,4.528005168592610236e-02
1.110000000000000000e+02,4.430589867559272393e-02
1.120000000000000000e+02,4.313482290975825806e-02
1.130000000000000000e+02,4.199441775139815813e-02
1.140000000000000000e+02,4.080116221743911031e-02
1.150000000000000000e+02,3.955464332364636709e-02
1.160000000000000000e+02,3.836196435672269145e-02
1.170000000000000000e+02,3.727863599727752192e-02
1.180000000000000000e+02,3.634318008784412357e-02
1.190000000000000000e+02,3.573747662314728096e-02
1.200000000000000000e+02,3.519759383768375494e-02
1.210000000000000000e+02,3.477628153188650623e-02
1.220000000000000000e+02,3.448118919868638915e-02
1.230000000000000000e+02,3.442254533983148818e-02
1.240000000000000000e+02,3.455178464350903977e-02
1.250000000000000000e+02,3.493960454721084519e-02
1.260000000000000000e+02,3.546701343777752119e-02
1.270000000000000000e+02,3.610462257895274973e-02
1.280000000000000000e+02,3.683757033295042421e-02
1.290000000000000000e+02,3.762968313526851571e-02
1.300000000000000000e+02,3.862305754918855111e-02
1.310000000000000000e+02,3.952108299258218910e-02
1.320000000000000000e+02,4.018966070819984110e-02
1.330000000000000000e+02,4.059016036179956960e-02
1.340000000000000000e+02,4.079332220549543309e-02
1.350000000000000000e+02,4.086370875593163532e-02
1.360000000000000000e+02,4.111520762590356592e-02
1.370000000000000000e+02,4.141280067593507141e-02
1.380000000000000000e+02,4.153805359328105462e-02
1.390000000000000000e+02,4.142391886803713924e-02
1.400000000000000000e+02,4.093229046529285597e-02
1.410000000000000000e+02,3.993185975947127070e-02
1.420000000000000000e+02,3.896174421251621250e-02
1.430000000000000000e+02,3.889812951022103560e-02
1.440000000000000000e+02,3.984976829521130748e-02
1.450000000000000000e+02,4.164179854828930355e-02
1.460000000000000000e+02,4.359329744246515093e-02
1.470000000000000000e+02,4.492046150081847877e-02
1.480000000000000000e+02,4.571351150962151000e-02
1.490000000000000000e+02,4.610097823228329061e-02
1.500000000000000000e+02,4.586722023147227906e-02
1.510000000000000000e+02,4.498351178942490425e-02
1.520000000000000000e+02,4.343163150556605262e-02
1.530000000000000000e+02,4.151559454240318081e-02
1.540000000000000000e+02,3.995866346605589370e-02
1.550000000000000000e+02,3.878587044569424547e-02
1.560000000000000000e+02,3.804511199736914512e-02
1.570000000000000000e+02,3.788191644970355376e-02
1.580000000000000000e+02,3.840875811998372552e-02
1.590000000000000000e+02,3.958765584035928847e-02
1.600000000000000000e+02,4.121132638427756761e-02
1.610000000000000000e+02,4.256364541183704081e-02
1.620000000000000000e+02,4.329984917590670029e-02
1.630000000000000000e+02,4.359884700678662295e-02
1.640000000000000000e+02,4.344181915070505912e-02
1.650000000000000000e+02,4.287513463970810124e-02
1.660000000000000000e+02,4.180397157632800148e-02
1.670000000000000000e+02,4.016347636554293971e-02
1.680000000000000000e+02,3.842729827293971806e-02
1.690000000000000000e+02,3.726032936946611224e-02
1.700000000000000000e+02,3.653840259496298620e-02
1.710000000000000000e+02,3.632828761707560666e-02
1.720000000000000000e+02,3.645423235013271757e-02
1.730000000000000000e+02,3.667900884295757086e-02
1.740000000000000000e+02,3.702151547300781831e-02
1.750000000000000000e+02,3.757696685073765724e-02
1.760000000000000000e+02,3.831669279705441494e-02
1.770000000000000000e+02,3.923488983762594279e-02
1.780000000000000000e+02,4.043141951865034112e-02
1.790000000000000000e+02,4.170151967741299315e-02
1.800000000000000000e+02,4.284815339812322876e-02
1.810000000000000000e+02,4.381609278016702219e-02
1.820000000000000000e+02,4.472837502821028904e-02
1.830000000000000000e+02,4.536664573020066094e-02
1.840000000000000000e+02,4.560369118905702873e-02
1.850000000000000000e+02,4.549118069113734786e-02
1.860000000000000000e+02,4.501930210304528474e-02
1.870000000000000000e+02,4.434291449666580981e-02
1.880000000000000000e+02,4.353716738132502179e-02
1.890000000000000000e+02,4.268802355045252239e-02
1.900000000000000000e+02,4.176126358070723910e-02
1.910000000000000000e+02,4.108445044880260771e-02
1.920000000000000000e+02,4.064097510741228325e-02
1.930000000000000000e+02,4.043832754824971260e-02
1.940000000000000000e+02,4.048152739731594035e-02
1.950000000000000000e+02,4.086272010040328806e-02
1.960000000000000000e+02,4.135428752829179572e-02
1.970000000000000000e+02,4.207185788749950167e-02
1.980000000000000000e+02,4.288328068507775426e-02
1.990000000000000000e+02,4.369409753035677357e-02
2.000000000000000000e+02,4.502713546352005852e-02
2.010000000000000000e+02,4.612986900476990365e-02
2.020000000000000000e+02,4.652288592110545573e-02
2.030000000000000000e+02,4.603140028584033067e-02
2.040000000000000000e+02,4.466105390252479712e-02
2.050000000000000000e+02,4.314506972098849230e-02
2.060000000000000000e+02,4.253612669231999349e-02
2.070000000000000000e+02,4.254018341688295402e-02
2.080000000000000000e+02,4.311561200472340677e-02
2.090000000000000000e+02,4.413582284969548575e-02
2.100000000000000000e+02,4.532809219264947315e-02
2.110000000000000000e+02,4.670671235538603056e-02
2.120000000000000000e+02,4.836012402671940880e-02
2.130000000000000000e+02,5.023897540169320469e-02
2.140000000000000000e+02,5.204737117649910899e-02
2.150000000000000000e+02,5.406808244562406884e-02
2.160000000000000000e+02,5.589244636013798034e-02
2.170000000000000000e+02,5.719614375590068023e-02
2.180000000000000000e+02,5.820880567677181455e-02
2.190000000000000000e+02,5.901825419621004737e-02
2.200000000000000000e+02,5.969779049601398047e-02
2.210000000000000000e+02,6.056077103596296113e-02
2.220000000000000000e+02,6.140923708069615655e-02
2.230000000000000000e+02,6.216448505365282373e-02
2.240000000000000000e+02,6.283864297476281224e-02
2.250000000000000000e+02,6.334960840136093230e-02
2.260000000000000000e+02,6.380744662139734014e-02
2.270000000000000000e+02,6.426939197242517721e-02
2.280000000000000000e+02,6.478742639451130769e-02
2.290000000000000000e+02,6.547563089011489146e-02
2.300000000000000000e+02,6.628557765335656160e-02
2.310000000000000000e+02,6.717810719277338138e-02
2.320000000000000000e+02,6.823238826343838714e-02
2.330000000000000000e+02,6.941482200737274233e-02
2.340000000000000000e+02,7.063032792055637388e-02
2.350000000000000000e+02,7.207084132712950064e-02
2.360000000000000000e+02,7.368329858803851495e-02
2.370000000000000000e+02,7.546314117503909180e-02
2.380000000000000000e+02,7.732115748393598997e-02
2.390000000000000000e+02,7.908193805842432533e-02
2.400000000000000000e+02,8.064267673092222199e-02
2.410000000000000000e+02,8.207234409167779576e-02
2.420000000000000000e+02,8.309913664929895194e-02
2.430000000000000000e+02,8.375834847265935246e-02
2.440000000000000000e+02,8.404510950129258362e-02
2.450000000000000000e+02,8.396072828960124412e-02
2.460000000000000000e+02,8.353462757270201100e-02
2.470000000000000000e+02,8.280549821527700971e-02
2.480000000000000000e+02,8.188741487364460669e-02
2.490000000000000000e+02,8.080918113360611998e-02
2.500000000000000000e+02,7.955016791357968908e-02
2.510000000000000000e+02,7.811631558669668296e-02
2.520000000000000000e+02,7.650491350278307290e-02
2.530000000000000000e+02,7.486525487214237828e-02
2.540000000000000000e+02,7.352922299719863442e-02
2.550000000000000000e+02,7.251017167689458032e-02
2.560000000000000000e+02,7.139788165156887856e-02
2.570000000000000000e+02,6.995638209848398237e-02
2.580000000000000000e+02,6.810294192925234191e-02
2.590000000000000000e+02,6.591857416109961343e-02
2.600000000000000000e+02,6.338542701419161429e-02
2.610000000000000000e+02,6.080603135239410345e-02
2.620000000000000000e+02,5.786192496399306107e-02
2.630000000000000000e+02,5.458839511267678246e-02
2.640000000000000000e+02,5.143287043298657574e-02
2.650000000000000000e+02,4.849768041495824966e-02
2.660000000000000000e+02,4.567939263975336062e-02
2.670000000000000000e+02,4.322770638367545715e-02
2.680000000000000000e+02,4.140498790379878308e-02
2.690000000000000000e+02,4.042324432139567103e-02
2.700000000000000000e+02,4.013702616451506056e-02
2.710000000000000000e+02,4.058687433097245972e-02
2.720000000000000000e+02,4.171106846172153299e-02
2.730000000000000000e+02,4.327364075592634446e-02
2.740000000000000000e+02,4.567197452864048962e-02
2.750000000000000000e+02,4.827711562678006774e-02
2.760000000000000000e+02,5.035290362936672287e-02
2.770000000000000000e+02,5.221176002646155112e-02
2.780000000000000000e+02,5.373944396456471068e-02
2.790000000000000000e+02,5.459494395981669829e-02
2.800000000000000000e+02,5.492570100342195061e-02
2.810000000000000000e+02,5.461809179680025828e-02
2.820000000000000000e+02,5.373799383256399470e-02
2.830000000000000000e+02,5.260308008884426872e-02
2.840000000000000000e+02,5.111733713658465211e-02
2.850000000000000000e+02,4.901359221341748673e-02
2.860000000000000000e+02,4.721351849870415729e-02
2.870000000000000000e+02,4.642530349532449779e-02
2.880000000000000000e+02,4.677939502637890740e-02
2.890000000000000000e+02,4.810717565122252931e-02
2.900000000000000000e+02,4.970801310122962419e-02
2.910000000000000000e+02,5.077468671887198914e-02
2.920000000000000000e+02,5.165638187688295635e-02
2.930000000000000000e+02,5.253328729467261066e-02
2.940000000000000000e+02,5.350588206272120784e-02
2.950000000000000000e+02,5.487978907540258522e-02
2.960000000000000000e+02,5.660502773656179293e-02
2.970000000000000000e+02,5.841195268146005815e-02
2.980000000000000000e+02,6.038652177280301458e-02
2.990000000000000000e+02,6.193098265803350516e-02
3.000000000000000000e+02,6.406587165772401060e-02
3.010000000000000000e+02,6.891684502292533265e-02
3.020000000000000000e+02,7.717973044498482871e-02
3.030000000000000000e+02,8.884594553291357000e-02
3.040000000000000000e+02,1.050491018743545113e-01
3.050000000000000000e+02,1.248716804370366973e-01
3.060000000000000000e+02,1.512117147065200340e-01
3.070000000000000000e+02,1.824735352692909429e-01
3.080000000000000000e+02,2.159532619712351276e-01
3.090000000000000000e+02,2.525697805584917743e-01
3.100000000000000000e+02,2.910688089757690333e-01
3.110000000000000000e+02,3.295787776204159858e-01
3.120000000000000000e+02,3.673146974285615429e-01
3.130000000000000000e+02,3.990371112525348818e-01
3.140000000000000000e+02,4.255150508077592542e-01
3.150000000000000000e+02,4.467643200619417776e-01
3.160000000000000000e+02,4.579903416134726846e-01
3.170000000000000000e+02,4.586500179706261560e-01
3.180000000000000000e+02,4.500953570368872447e-01
3.190000000000000000e+02,4.318107496909598386e-01
3.200000000000000000e+02,4.098420983397310091e-01
3.210000000000000000e+02,3.822831944051566788e-01
3.220000000000000000e+02,3.496064445525797759e-01
3.230000000000000000e+02,3.154880808822560501e-01
3.240000000000000000e+02,2.806294367676158696e-01
3.250000000000000000e+02,2.443427961288689443e-01
3.260000000000000000e+02,2.098458985848074831e-01
3.270000000000000000e+02,1.772425578276305702e-01
3.280000000000000000e+02,1.503529655326855952e-01
3.290000000000000000e+02,1.297984264099268092e-01
3.300000000000000000e+02,1.127511076184842254e-01
3.310000000000000000e+02,9.909144579534553965e-02
3.320000000000000000e+02,8.862727322607789893e-02
3.330000000000000000e+02,8.028838097249696437e-02
3.340000000000000000e+02,7.459627864334787695e-02
3.350000000000000000e+02,7.030867036800564351e-02
3.360000000000000000e+02,6.676625175397561673e-02
3.370000000000000000e+02,6.452698771240381048e-02
3.380000000000000000e+02,6.368325273606877113e-02
3.390000000000000000e+02,6.373238017120247401e-02
3.400000000000000000e+02,6.503707677951356403e-02
3.410000000000000000e+02,6.740733456317563044e-02
3.420000000000000000e+02,7.069825223711714846e-02
3.430000000000000000e+02,7.454711733243936378e-02
3.440000000000000000e+02,7.821027968068654246e-02
3.450000000000000000e+02,8.364031002856554819e-02
3.460000000000000000e+02,9.098704575352117851e-02
3.470000000000000000e+02,9.965544133439416252e-02
3.480000000000000000e+02,1.106709022788535668e-01
3.490000000000000000e+02,1.232820524513036087e-01
3.500000000000000000e+02,1.357621545999195822e-01
3.510000000000000000e+02,1.500449300690299970e-01
3.520000000000000000e+02,1.657543765644157452e-01
3.530000000000000000e+02,1.815944326311783874e-01
3.540000000000000000e+02,1.993943906899299512e-01
3.550000000000000000e+02,2.191804998065068621e-01
3.560000000000000000e+02,2.377381044324407278e-01
3.570000000000000000e+02,2.549976752675209291e-01
3.580000000000000000e+02,2.699393457100690008e-01
3.590000000000000000e+02,2.823808150102581349e-01
3.600000000000000000e+02,2.921549187698088135e-01
3.610000000000000000e+02,2.991247674495027264e-01
3.620000000000000000e+02,3.029069255733214949e-01
3.630000000000000000e+02,3.033725312707470367e-01
3.640000000000000000e+02,2.998332085831962313e-01
3.650000000000000000e+02,2.933650019362153416e-01
3.660000000000000000e+02,2.834235016563450005e-01
3.670000000000000000e+02,2.695013697561285948e-01
3.680000000000000000e+02,2.537513397288838624e-01
3.690000000000000000e+02,2.341194568258540831e-01
3.700000000000000000e+02,2.112102933174181130e-01
3.710000000000000000e+02,1.884698480792380559e-01
3.720000000000000000e+02,1.667937222414524467e-01
3.730000000000000000e+02,1.460737314861568215e-01
3.740000000000000000e+02,1.278246133795844508e-01
3.750000000000000000e+02,1.107808483498358559e-01
3.760000000000000000e+02,9.621557185467465023e-02
3.770000000000000000e+02,8.430205071071687761e-02
3.780000000000000000e+02,7.445785540170148098e-02
3.790000000000000000e+02,6.691278993307060718e-02
3.800000000000000000e+02,6.135969997874891890e-02
3.810000000000000000e+02,5.723561897812207838e-02
3.820000000000000000e+02,5.472555217392478799e-02
3.830000000000000000e+02,5.205049887658742824e-02
3.840000000000000000e+02,4.978628791234876450e-02
3.850000000000000000e+02,4.816642955336932624e-02
3.860000000000000000e+02,4.745316649845592039e-02
3.870000000000000000e+02,4.780524257364049401e-02
3.880000000000000000e+02,4.959488715479380000e-02
3.890000000000000000e+02,5.190445632810940235e-02
3.900000000000000000e+02,5.387778748557420921e-02
3.910000000000000000e+02,5.506838783622656358e-02
3.920000000000000000e+02,5.587752785733176436e-02
3.930000000000000000e+02,5.592513911597302156e-02
3.940000000000000000e+02,5.532145934294874223e-02
3.950000000000000000e+02,5.370835539405300479e-02
3.960000000000000000e+02,5.135239427167952175e-02
3.970000000000000000e+02,4.921559307384285736e-02
3.980000000000000000e+02,4.783732291673799958e-02
